   0.9969426  -0.0781288   0.0781288   0.9969426     235.547      38.004
   0.9969426  -0.0781288   0.0781288   0.9969426     234.625      35.603
   0.9969426  -0.0781288   0.0781288   0.9969426     223.701      31.415
   0.9969426  -0.0781288   0.0781288   0.9969426     225.796      28.162
   0.9969426  -0.0781288   0.0781288   0.9969426     226.116      27.606
   0.9969426  -0.0781288   0.0781288   0.9969426     210.712      25.914
   0.9969426  -0.0781288   0.0781288   0.9969426     208.329      19.312
   0.9969426  -0.0781288   0.0781288   0.9969426     200.990      17.097
   0.9969427  -0.0781288   0.0781288   0.9969427     195.454      14.497
   0.9969427  -0.0781288   0.0781288   0.9969427     195.790      13.834
   0.9969426  -0.0781288   0.0781288   0.9969426     187.801       5.532
   0.9969426  -0.0781288   0.0781288   0.9969426     175.286       1.654
   0.9969426  -0.0781288   0.0781288   0.9969426     165.985      -3.296
   0.9969427  -0.0781288   0.0781288   0.9969427     163.983      -5.302
   0.9969426  -0.0781288   0.0781288   0.9969426     152.536     -10.559
   0.9969426  -0.0781288   0.0781288   0.9969426     139.394     -13.684
   0.9969427  -0.0781288   0.0781288   0.9969427     133.092     -16.663
   0.9969427  -0.0781288   0.0781288   0.9969427     121.013     -19.063
   0.9969426  -0.0781288   0.0781288   0.9969426     109.659     -20.318
   0.9969426  -0.0781288   0.0781288   0.9969426      99.224     -22.360
   0.9969426  -0.0781288   0.0781288   0.9969426      91.433     -24.568
   0.9969426  -0.0781288   0.0781288   0.9969426      68.270     -21.853
   0.9969426  -0.0781288   0.0781288   0.9969426      51.887     -24.671
   0.9969426  -0.0781288   0.0781288   0.9969426      37.343     -25.154
   0.9969426  -0.0781288   0.0781288   0.9969426      23.811     -25.969
   0.9969426  -0.0781288   0.0781288   0.9969426      11.589     -23.362
   0.9969426  -0.0781288   0.0781288   0.9969426      -2.004     -22.401
   0.9969426  -0.0781288   0.0781288   0.9969426     -19.370     -23.658
   0.9969426  -0.0781288   0.0781288   0.9969426     -31.291     -24.362
   0.9969427  -0.0781288   0.0781288   0.9969427     -45.388     -24.907
   0.9969426  -0.0781288   0.0781288   0.9969426     -62.690     -22.545
   0.9969426  -0.0781288   0.0781288   0.9969426     -77.701     -20.373
   0.9969426  -0.0781288   0.0781288   0.9969426     -94.297     -22.037
   0.9969426  -0.0781288   0.0781288   0.9969426    -104.462     -18.793
   0.9969426  -0.0781288   0.0781288   0.9969426    -119.381     -18.602
   0.9969426  -0.0781288   0.0781288   0.9969426    -130.110     -17.016
   0.9969426  -0.0781288   0.0781288   0.9969426    -137.695     -16.166
   0.9969427  -0.0781288   0.0781288   0.9969427    -144.755     -19.261
   0.9969426  -0.0781288   0.0781288   0.9969426    -141.401     -24.187
   0.9969426  -0.0781288   0.0781288   0.9969426     -91.222       5.175
   0.9969426  -0.0781288   0.0781288   0.9969426     -87.296       7.372
   0.9969427  -0.0781288   0.0781288   0.9969427     -93.120       8.213
   0.9969426  -0.0781288   0.0781288   0.9969426     -98.855       7.346
   0.9969426  -0.0781288   0.0781288   0.9969426     -96.195      11.060
   0.9969426  -0.0781288   0.0781288   0.9969426    -102.171      10.772
   0.9969427  -0.0781288   0.0781288   0.9969427    -105.448      12.747
   0.9969426  -0.0781288   0.0781288   0.9969426    -105.055      13.364
   0.9969426  -0.0781288   0.0781288   0.9969426    -113.071      13.947
   0.9969427  -0.0781288   0.0781288   0.9969427    -116.273      15.032
   0.9969426  -0.0781288   0.0781288   0.9969426    -120.531      14.196
   0.9969426  -0.0781288   0.0781288   0.9969426    -125.014      14.960
   0.9969427  -0.0781288   0.0781288   0.9969427    -126.254      15.917
   0.9969427  -0.0781288   0.0781288   0.9969427    -121.089      16.724
   0.9969427  -0.0781288   0.0781288   0.9969427    -130.208      18.292
   0.9969426  -0.0781288   0.0781288   0.9969426    -123.658      17.414
   0.9969426  -0.0781288   0.0781288   0.9969426    -134.105      18.190
   0.9969426  -0.0781288   0.0781288   0.9969426    -135.401      19.328
   0.9969426  -0.0781288   0.0781288   0.9969426    -132.704      16.594
   0.9969427  -0.0781288   0.0781288   0.9969427    -127.889      15.857
