   0.9970203  -0.0771461   0.0771461   0.9970203     130.224      19.653
   0.9970204  -0.0771461   0.0771461   0.9970204     117.647      15.624
   0.9970204  -0.0771461   0.0771461   0.9970204     118.681      13.625
   0.9970204  -0.0771461   0.0771461   0.9970204     118.730      10.057
   0.9970204  -0.0771461   0.0771461   0.9970204     110.437      10.734
   0.9970203  -0.0771461   0.0771461   0.9970203     113.050       7.128
   0.9970203  -0.0771461   0.0771461   0.9970203     106.546       6.693
   0.9970204  -0.0771461   0.0771461   0.9970204     103.463       5.418
   0.9970204  -0.0771461   0.0771461   0.9970204     107.570       4.848
   0.9970204  -0.0771461   0.0771461   0.9970204     104.228       1.914
   0.9970204  -0.0771461   0.0771461   0.9970204      97.267       2.526
   0.9970204  -0.0771461   0.0771461   0.9970204      91.276       1.810
   0.9970204  -0.0771461   0.0771461   0.9970204      86.922      -1.216
   0.9970204  -0.0771461   0.0771461   0.9970204      83.250      -2.047
   0.9970204  -0.0771461   0.0771461   0.9970204      67.874      -1.854
   0.9970204  -0.0771461   0.0771461   0.9970204      68.032      -5.668
   0.9970204  -0.0771461   0.0771461   0.9970204      60.144      -6.314
   0.9970204  -0.0771461   0.0771461   0.9970204      57.085      -5.971
   0.9970204  -0.0771461   0.0771461   0.9970204      47.061      -5.320
   0.9970204  -0.0771461   0.0771461   0.9970204      46.830      -8.466
   0.9970204  -0.0771461   0.0771461   0.9970204      37.638      -9.478
   0.9970204  -0.0771461   0.0771461   0.9970204      30.646      -9.651
   0.9970204  -0.0771461   0.0771461   0.9970204      22.301     -10.961
   0.9970204  -0.0771461   0.0771461   0.9970204      13.024     -11.639
   0.9970204  -0.0771461   0.0771461   0.9970204      10.764      -7.821
   0.9970203  -0.0771461   0.0771461   0.9970203       7.425      -8.736
   0.9970204  -0.0771461   0.0771461   0.9970204       6.638      -9.952
   0.9970204  -0.0771461   0.0771461   0.9970204      -0.802      -8.493
   0.9970204  -0.0771461   0.0771461   0.9970204      -5.872      -9.381
   0.9970204  -0.0771461   0.0771461   0.9970204     -10.874      -7.671
   0.9970204  -0.0771461   0.0771461   0.9970204     -12.274      -7.318
   0.9970204  -0.0771461   0.0771461   0.9970204     -16.657      -4.551
   0.9970204  -0.0771461   0.0771461   0.9970204     -20.026      -3.992
   0.9970204  -0.0771461   0.0771461   0.9970204     -20.019      -1.320
   0.9970203  -0.0771461   0.0771461   0.9970203     -22.170      -2.325
   0.9970204  -0.0771461   0.0771461   0.9970204     -20.088      -2.865
   0.9970204  -0.0771461   0.0771461   0.9970204     -15.780      -6.583
   0.9970204  -0.0771461   0.0771461   0.9970204      -7.194     -14.531
   0.9970204  -0.0771461   0.0771461   0.9970204      -3.360      -0.476
   0.9970204  -0.0771461   0.0771461   0.9970204       0.071      -1.381
   0.9970204  -0.0771461   0.0771461   0.9970204       3.303       7.584
   0.9970204  -0.0771461   0.0771461   0.9970204      -6.272       0.942
   0.9970204  -0.0771461   0.0771461   0.9970204      -2.822       0.355
   0.9970203  -0.0771461   0.0771461   0.9970203      -6.684      -0.255
   0.9970203  -0.0771461   0.0771461   0.9970203     -10.914       2.455
   0.9970203  -0.0771461   0.0771461   0.9970203     -11.919       1.885
   0.9970204  -0.0771461   0.0771461   0.9970204     -16.736       2.719
   0.9970204  -0.0771461   0.0771461   0.9970204     -19.964       2.831
   0.9970203  -0.0771461   0.0771461   0.9970203     -19.790       1.415
   0.9970204  -0.0771461   0.0771461   0.9970204     -26.522       4.924
   0.9970204  -0.0771461   0.0771461   0.9970204     -29.388       5.650
   0.9970204  -0.0771461   0.0771461   0.9970204     -31.648       5.348
   0.9970204  -0.0771461   0.0771461   0.9970204     -34.257       5.339
   0.9970204  -0.0771461   0.0771461   0.9970204     -34.706       4.574
   0.9970204  -0.0771461   0.0771461   0.9970204     -43.829       7.819
   0.9970204  -0.0771461   0.0771461   0.9970204     -47.484       9.229
   0.9970204  -0.0771461   0.0771461   0.9970204     -46.508       8.112
   0.9970204  -0.0771461   0.0771461   0.9970204     -49.348       5.027
