   0.9964260  -0.0844787   0.0844787   0.9964260     653.165      37.636
   0.9964259  -0.0844787   0.0844787   0.9964259     632.727      33.589
   0.9964259  -0.0844787   0.0844787   0.9964259     620.368      30.609
   0.9964259  -0.0844787   0.0844787   0.9964259     602.723      24.339
   0.9964259  -0.0844787   0.0844787   0.9964259     586.186      26.717
   0.9964259  -0.0844787   0.0844787   0.9964259     571.857      20.302
   0.9964259  -0.0844787   0.0844787   0.9964259     554.361      16.509
   0.9964259  -0.0844787   0.0844787   0.9964259     535.063      17.045
   0.9964259  -0.0844787   0.0844787   0.9964259     519.228      12.940
   0.9964259  -0.0844785   0.0844785   0.9964259     500.397       9.442
   0.9964259  -0.0844787   0.0844787   0.9964259     481.714       6.627
   0.9964259  -0.0844787   0.0844787   0.9964259     458.205       6.957
   0.9964259  -0.0844785   0.0844785   0.9964259     437.489       1.131
   0.9964259  -0.0844787   0.0844787   0.9964259     411.218      -5.169
   0.9964260  -0.0844787   0.0844787   0.9964260     383.674      -5.763
   0.9964259  -0.0844787   0.0844787   0.9964259     369.929      -8.296
   0.9964259  -0.0844787   0.0844787   0.9964259     345.441     -13.019
   0.9964259  -0.0844787   0.0844787   0.9964259     316.947     -17.196
   0.9964259  -0.0844787   0.0844787   0.9964259     293.445     -19.535
   0.9964259  -0.0844787   0.0844787   0.9964259     273.574     -20.404
   0.9964259  -0.0844787   0.0844787   0.9964259     243.322     -20.666
   0.9964259  -0.0844787   0.0844787   0.9964259     217.926     -22.346
   0.9964259  -0.0844787   0.0844787   0.9964259     189.968     -26.195
   0.9964259  -0.0844787   0.0844787   0.9964259     154.813     -24.542
   0.9964259  -0.0844787   0.0844787   0.9964259     130.373     -23.376
   0.9964259  -0.0844787   0.0844787   0.9964259     101.976     -23.502
   0.9964259  -0.0844787   0.0844787   0.9964259      78.484     -27.609
   0.9964259  -0.0844787   0.0844787   0.9964259      47.074     -25.500
   0.9964259  -0.0844787   0.0844787   0.9964259      17.872     -24.884
   0.9964259  -0.0844787   0.0844787   0.9964259     -10.911     -23.162
   0.9964259  -0.0844787   0.0844787   0.9964259     -39.367     -22.410
   0.9964260  -0.0844787   0.0844787   0.9964260     -65.714     -20.325
   0.9964259  -0.0844787   0.0844787   0.9964259     -97.790     -23.411
   0.9964259  -0.0844787   0.0844787   0.9964259    -123.330     -23.209
   0.9964259  -0.0844787   0.0844787   0.9964259    -149.827     -23.635
   0.9964259  -0.0844787   0.0844787   0.9964259    -175.751     -25.097
   0.9964259  -0.0844787   0.0844787   0.9964259    -194.684     -23.773
   0.9964259  -0.0844787   0.0844787   0.9964259    -209.107     -30.983
   0.9964259  -0.0844787   0.0844787   0.9964259    -263.893       6.197
   0.9964259  -0.0844787   0.0844787   0.9964259    -280.506       4.750
   0.9964259  -0.0844787   0.0844787   0.9964259    -305.596       5.362
   0.9964259  -0.0844787   0.0844787   0.9964259    -329.791       8.026
   0.9964259  -0.0844787   0.0844787   0.9964259    -344.395      11.165
   0.9964259  -0.0844787   0.0844787   0.9964259    -372.504      10.391
   0.9964259  -0.0844787   0.0844787   0.9964259    -393.666      10.520
   0.9964259  -0.0844787   0.0844787   0.9964259    -414.221       9.295
   0.9964259  -0.0844787   0.0844787   0.9964259    -437.969      12.689
   0.9964259  -0.0844787   0.0844787   0.9964259    -465.148      14.596
   0.9964259  -0.0844787   0.0844787   0.9964259    -486.357      15.224
   0.9964259  -0.0844787   0.0844787   0.9964259    -506.237      14.573
   0.9964259  -0.0844787   0.0844787   0.9964259    -526.858      16.469
   0.9964259  -0.0844787   0.0844787   0.9964259    -535.858      17.641
   0.9964259  -0.0844787   0.0844787   0.9964259    -563.306      17.884
   0.9964259  -0.0844787   0.0844787   0.9964259    -567.538      17.710
   0.9964259  -0.0844787   0.0844787   0.9964259    -595.923      19.687
   0.9964259  -0.0844787   0.0844787   0.9964259    -610.227      22.067
   0.9964259  -0.0844787   0.0844787   0.9964259    -614.921      23.609
   0.9964259  -0.0844787   0.0844787   0.9964259    -616.739      22.310
