   0.9973402  -0.0728783   0.0728783   0.9973402    -165.696      14.138
   0.9973403  -0.0728783   0.0728783   0.9973403    -167.052      13.760
   0.9973402  -0.0728783   0.0728783   0.9973402    -175.520      12.136
   0.9973403  -0.0728783   0.0728783   0.9973403    -169.016      11.067
   0.9973403  -0.0728783   0.0728783   0.9973403    -161.478       9.545
   0.9973403  -0.0728783   0.0728783   0.9973403    -159.431       8.664
   0.9973402  -0.0728783   0.0728783   0.9973402    -150.513       6.770
   0.9973402  -0.0728783   0.0728783   0.9973402    -150.252       6.037
   0.9973402  -0.0728783   0.0728783   0.9973402    -146.529       7.583
   0.9973402  -0.0728783   0.0728783   0.9973402    -138.361       3.867
   0.9973403  -0.0728783   0.0728783   0.9973403    -133.512       1.521
   0.9973402  -0.0728783   0.0728783   0.9973402    -132.480       2.604
   0.9973402  -0.0728783   0.0728783   0.9973402    -129.838       2.346
   0.9973402  -0.0728783   0.0728783   0.9973402    -124.088       0.628
   0.9973403  -0.0728783   0.0728783   0.9973403    -121.055      -1.073
   0.9973403  -0.0728783   0.0728783   0.9973403    -120.316       1.895
   0.9973403  -0.0728783   0.0728783   0.9973403    -111.251      -0.004
   0.9973402  -0.0728783   0.0728783   0.9973402    -108.282      -0.403
   0.9973402  -0.0728783   0.0728783   0.9973402    -100.473      -0.648
   0.9973403  -0.0728783   0.0728783   0.9973403     -92.534      -2.742
   0.9973402  -0.0728783   0.0728783   0.9973402     -77.311      -4.467
   0.9973403  -0.0728783   0.0728783   0.9973403     -79.815      -4.783
   0.9973403  -0.0728783   0.0728783   0.9973403     -72.657      -4.520
   0.9973402  -0.0728783   0.0728783   0.9973402     -64.221      -4.513
   0.9973402  -0.0728783   0.0728783   0.9973402     -55.861      -4.138
   0.9973402  -0.0728783   0.0728783   0.9973402     -44.145      -1.545
   0.9973403  -0.0728783   0.0728783   0.9973403     -36.510      -2.903
   0.9973403  -0.0728783   0.0728783   0.9973403     -22.371      -5.450
   0.9973403  -0.0728783   0.0728783   0.9973403     -15.987      -2.862
   0.9973402  -0.0728783   0.0728783   0.9973402      -7.784      -3.994
   0.9973403  -0.0728783   0.0728783   0.9973403       3.108      -2.875
   0.9973402  -0.0728783   0.0728783   0.9973402      12.766       0.881
   0.9973403  -0.0728783   0.0728783   0.9973403      24.564       2.887
   0.9973403  -0.0728783   0.0728783   0.9973403      35.410      -0.806
   0.9973402  -0.0728783   0.0728783   0.9973402      51.021       2.118
   0.9973402  -0.0728783   0.0728783   0.9973402      71.181       1.078
   0.9973403  -0.0728783   0.0728783   0.9973403      89.546      -4.271
   0.9973402  -0.0728783   0.0728783   0.9973402     115.844      -6.224
   0.9973403  -0.0728783   0.0728783   0.9973403     145.587     -14.244
   0.9973403  -0.0728783   0.0728783   0.9973403      61.191      -2.982
   0.9973402  -0.0728783   0.0728783   0.9973402      75.543      -2.469
   0.9973403  -0.0728783   0.0728783   0.9973403      82.780      -4.635
   0.9973402  -0.0728783   0.0728783   0.9973402      89.682      -3.721
   0.9973402  -0.0728783   0.0728783   0.9973402     100.140      -3.011
   0.9973402  -0.0728783   0.0728783   0.9973402     106.785      -3.154
   0.9973403  -0.0728783   0.0728783   0.9973403     112.496      -2.654
   0.9973402  -0.0728783   0.0728783   0.9973402     120.618      -3.517
   0.9973402  -0.0728783   0.0728783   0.9973402     125.687      -1.685
   0.9973403  -0.0728783   0.0728783   0.9973403     134.991      -2.346
   0.9973403  -0.0728783   0.0728783   0.9973403     139.838      -2.826
   0.9973402  -0.0728783   0.0728783   0.9973402     150.006      -2.386
   0.9973402  -0.0728783   0.0728783   0.9973402     152.164      -2.300
   0.9973403  -0.0728783   0.0728783   0.9973403     159.269      -0.982
   0.9973402  -0.0728783   0.0728783   0.9973402     164.995       1.202
   0.9973402  -0.0728783   0.0728783   0.9973402     174.195      -0.238
   0.9973402  -0.0728783   0.0728783   0.9973402     172.703       0.592
   0.9973402  -0.0728783   0.0728783   0.9973402     176.766      -0.171
   0.9973403  -0.0728783   0.0728783   0.9973403     185.025       0.870
   0.9973403  -0.0728783   0.0728783   0.9973403     196.490      -0.678
